voltage;current
150.0;0.000126
200.0;0.000165
250.0;0.00021
300.0;0.000252
350.0;0.000295
400.0;0.000337
450.0;0.000379
500.0;0.000421
550.0;0.00046
600.0;0.000505
650.0;0.000547
700.0;0.00059
750.0;0.000632
800.0;0.000674
850.0;0.000717
900.0;0.000754
950.0;0.0008
1000.0;0.000843
